# Extension (um), Force (pN)
5.5492 0.04602
7.4701 0.07853
9.0069 0.12182
10.117 0.17183
11.0997 0.26201
11.7404 0.33611
12.425 0.5231
12.8525 0.6588
13.1955 0.9141
13.6241 1.3701
13.8814 1.7947
14.0962 2.3511
14.3967 3.3918
14.6117 4.6187
14.7421 6.931
15.0004 10.598
